 frequency      frequency      frequency      frequency      vdb(net6)      frequency      vp(net6)      
 1.0000000e+00  1.0000000e+00  0.0000000e+00  1.0000000e+00  1.3927649e+00  1.0000000e+00 -6.5048633e-05 
 1.2589254e+00  1.2589254e+00  0.0000000e+00  1.2589254e+00  1.3927649e+00  1.2589254e+00 -8.1891378e-05 
 1.5848932e+00  1.5848932e+00  0.0000000e+00  1.5848932e+00  1.3927649e+00  1.5848932e+00 -1.0309514e-04 
 1.9952623e+00  1.9952623e+00  0.0000000e+00  1.9952623e+00  1.3927649e+00  1.9952623e+00 -1.2978909e-04 
 2.5118864e+00  2.5118864e+00  0.0000000e+00  2.5118864e+00  1.3927649e+00  2.5118864e+00 -1.6339478e-04 
 3.1622777e+00  3.1622777e+00  0.0000000e+00  3.1622777e+00  1.3927649e+00  3.1622777e+00 -2.0570184e-04 
 3.9810717e+00  3.9810717e+00  0.0000000e+00  3.9810717e+00  1.3927649e+00  3.9810717e+00 -2.5896327e-04 
 5.0118723e+00  5.0118723e+00  0.0000000e+00  5.0118723e+00  1.3927649e+00  5.0118723e+00 -3.2601545e-04 
 6.3095734e+00  6.3095734e+00  0.0000000e+00  6.3095734e+00  1.3927649e+00  6.3095734e+00 -4.1042913e-04 
 7.9432823e+00  7.9432823e+00  0.0000000e+00  7.9432823e+00  1.3927649e+00  7.9432823e+00 -5.1669966e-04 
 1.0000000e+01  1.0000000e+01  0.0000000e+00  1.0000000e+01  1.3927649e+00  1.0000000e+01 -6.5048633e-04 
 1.2589254e+01  1.2589254e+01  0.0000000e+00  1.2589254e+01  1.3927649e+00  1.2589254e+01 -8.1891378e-04 
 1.5848932e+01  1.5848932e+01  0.0000000e+00  1.5848932e+01  1.3927649e+00  1.5848932e+01 -1.0309514e-03 
 1.9952623e+01  1.9952623e+01  0.0000000e+00  1.9952623e+01  1.3927649e+00  1.9952623e+01 -1.2978909e-03 
 2.5118864e+01  2.5118864e+01  0.0000000e+00  2.5118864e+01  1.3927649e+00  2.5118864e+01 -1.6339478e-03 
 3.1622777e+01  3.1622777e+01  0.0000000e+00  3.1622777e+01  1.3927649e+00  3.1622777e+01 -2.0570184e-03 
 3.9810717e+01  3.9810717e+01  0.0000000e+00  3.9810717e+01  1.3927649e+00  3.9810717e+01 -2.5896327e-03 
 5.0118723e+01  5.0118723e+01  0.0000000e+00  5.0118723e+01  1.3927649e+00  5.0118723e+01 -3.2601545e-03 
 6.3095734e+01  6.3095734e+01  0.0000000e+00  6.3095734e+01  1.3927649e+00  6.3095734e+01 -4.1042913e-03 
 7.9432823e+01  7.9432823e+01  0.0000000e+00  7.9432823e+01  1.3927649e+00  7.9432823e+01 -5.1669966e-03 
 1.0000000e+02  1.0000000e+02  0.0000000e+00  1.0000000e+02  1.3927649e+00  1.0000000e+02 -6.5048633e-03 
 1.2589254e+02  1.2589254e+02  0.0000000e+00  1.2589254e+02  1.3927648e+00  1.2589254e+02 -8.1891377e-03 
 1.5848932e+02  1.5848932e+02  0.0000000e+00  1.5848932e+02  1.3927648e+00  1.5848932e+02 -1.0309514e-02 
 1.9952623e+02  1.9952623e+02  0.0000000e+00  1.9952623e+02  1.3927647e+00  1.9952623e+02 -1.2978909e-02 
 2.5118864e+02  2.5118864e+02  0.0000000e+00  2.5118864e+02  1.3927646e+00  2.5118864e+02 -1.6339478e-02 
 3.1622777e+02  3.1622777e+02  0.0000000e+00  3.1622777e+02  1.3927644e+00  3.1622777e+02 -2.0570183e-02 
 3.9810717e+02  3.9810717e+02  0.0000000e+00  3.9810717e+02  1.3927642e+00  3.9810717e+02 -2.5896326e-02 
 5.0118723e+02  5.0118723e+02  0.0000000e+00  5.0118723e+02  1.3927637e+00  5.0118723e+02 -3.2601542e-02 
 6.3095734e+02  6.3095734e+02  0.0000000e+00  6.3095734e+02  1.3927631e+00  6.3095734e+02 -4.1042908e-02 
 7.9432823e+02  7.9432823e+02  0.0000000e+00  7.9432823e+02  1.3927620e+00  7.9432823e+02 -5.1669956e-02 
 1.0000000e+03  1.0000000e+03  0.0000000e+00  1.0000000e+03  1.3927603e+00  1.0000000e+03 -6.5048612e-02 
 1.2589254e+03  1.2589254e+03  0.0000000e+00  1.2589254e+03  1.3927576e+00  1.2589254e+03 -8.1891335e-02 
 1.5848932e+03  1.5848932e+03  0.0000000e+00  1.5848932e+03  1.3927533e+00  1.5848932e+03 -1.0309505e-01 
 1.9952623e+03  1.9952623e+03  0.0000000e+00  1.9952623e+03  1.3927465e+00  1.9952623e+03 -1.2978892e-01 
 2.5118864e+03  2.5118864e+03  0.0000000e+00  2.5118864e+03  1.3927357e+00  2.5118864e+03 -1.6339444e-01 
 3.1622777e+03  3.1622777e+03  0.0000000e+00  3.1622777e+03  1.3927187e+00  3.1622777e+03 -2.0570117e-01 
 3.9810717e+03  3.9810717e+03  0.0000000e+00  3.9810717e+03  1.3926916e+00  3.9810717e+03 -2.5896194e-01 
 5.0118723e+03  5.0118723e+03  0.0000000e+00  5.0118723e+03  1.3926487e+00  5.0118723e+03 -3.2601278e-01 
 6.3095734e+03  6.3095734e+03  0.0000000e+00  6.3095734e+03  1.3925808e+00  6.3095734e+03 -4.1042380e-01 
 7.9432823e+03  7.9432823e+03  0.0000000e+00  7.9432823e+03  1.3924731e+00  7.9432823e+03 -5.1668903e-01 
 1.0000000e+04  1.0000000e+04  0.0000000e+00  1.0000000e+04  1.3923025e+00  1.0000000e+04 -6.5046512e-01 
 1.2589254e+04  1.2589254e+04  0.0000000e+00  1.2589254e+04  1.3920320e+00  1.2589254e+04 -8.1887145e-01 
 1.5848932e+04  1.5848932e+04  0.0000000e+00  1.5848932e+04  1.3916035e+00  1.5848932e+04 -1.0308669e+00 
 1.9952623e+04  1.9952623e+04  0.0000000e+00  1.9952623e+04  1.3909243e+00  1.9952623e+04 -1.2977224e+00 
 2.5118864e+04  2.5118864e+04  0.0000000e+00  2.5118864e+04  1.3898481e+00  2.5118864e+04 -1.6336117e+00 
 3.1622777e+04  3.1622777e+04  0.0000000e+00  3.1622777e+04  1.3881430e+00  3.1622777e+04 -2.0563479e+00 
 3.9810717e+04  3.9810717e+04  0.0000000e+00  3.9810717e+04  1.3854420e+00  3.9810717e+04 -2.5882954e+00 
 5.0118723e+04  5.0118723e+04  0.0000000e+00  5.0118723e+04  1.3811648e+00  5.0118723e+04 -3.2574878e+00 
 6.3095734e+04  6.3095734e+04  0.0000000e+00  6.3095734e+04  1.3743944e+00  6.3095734e+04 -4.0989756e+00 
 7.9432823e+04  7.9432823e+04  0.0000000e+00  7.9432823e+04  1.3636861e+00  7.9432823e+04 -5.1564062e+00 
 1.0000000e+05  1.0000000e+05  0.0000000e+00  1.0000000e+05  1.3467691e+00  1.0000000e+05 -6.4837824e+00 
 1.2589254e+05  1.2589254e+05  0.0000000e+00  1.2589254e+05  1.3200937e+00  1.2589254e+05 -8.1472319e+00 
 1.5848932e+05  1.5848932e+05  0.0000000e+00  1.5848932e+05  1.2781535e+00  1.5848932e+05 -1.0226388e+01 
 1.9952623e+05  1.9952623e+05  0.0000000e+00  1.9952623e+05  1.2125129e+00  1.9952623e+05 -1.2814568e+01 
 2.5118864e+05  2.5118864e+05  0.0000000e+00  2.5118864e+05  1.1104984e+00  2.5118864e+05 -1.6016237e+01 
 3.1622777e+05  3.1622777e+05  0.0000000e+00  3.1622777e+05  9.5363877e-01  3.1622777e+05 -1.9939351e+01 
 3.9810717e+05  3.9810717e+05  0.0000000e+00  3.9810717e+05  7.1624888e-01  3.9810717e+05 -2.4679442e+01 
 5.0118723e+05  5.0118723e+05  0.0000000e+00  5.0118723e+05  3.6510403e-01  5.0118723e+05 -3.0293208e+01 
 6.3095734e+05  6.3095734e+05  0.0000000e+00  6.3095734e+05 -1.3824458e-01  6.3095734e+05 -3.6764387e+01 
 7.9432823e+05  7.9432823e+05  0.0000000e+00  7.9432823e+05 -8.3107495e-01  7.9432823e+05 -4.3975155e+01 
 1.0000000e+06  1.0000000e+06  0.0000000e+00  1.0000000e+06 -1.7395401e+00  1.0000000e+06 -5.1706429e+01 
 1.2589254e+06  1.2589254e+06  0.0000000e+00  1.2589254e+06 -2.8691646e+00  1.2589254e+06 -5.9684446e+01 
 1.5848932e+06  1.5848932e+06  0.0000000e+00  1.5848932e+06 -4.2013789e+00  1.5848932e+06 -6.7661309e+01 
 1.9952623e+06  1.9952623e+06  0.0000000e+00  1.9952623e+06 -5.6981251e+00  1.9952623e+06 -7.5488196e+01 
 2.5118864e+06  2.5118864e+06  0.0000000e+00  2.5118864e+06 -7.3107845e+00  2.5118864e+06 -8.3145585e+01 
 3.1622777e+06  3.1622777e+06  0.0000000e+00  3.1622777e+06 -8.9877736e+00  3.1622777e+06 -9.0727323e+01 
 3.9810717e+06  3.9810717e+06  0.0000000e+00  3.9810717e+06 -1.0677977e+01  3.9810717e+06 -9.8397782e+01 
 5.0118723e+06  5.0118723e+06  0.0000000e+00  5.0118723e+06 -1.2330812e+01  5.0118723e+06 -1.0634013e+02 
 6.3095734e+06  6.3095734e+06  0.0000000e+00  6.3095734e+06 -1.3895652e+01  6.3095734e+06 -1.1470378e+02 
 7.9432823e+06  7.9432823e+06  0.0000000e+00  7.9432823e+06 -1.5323637e+01  7.9432823e+06 -1.2355635e+02 
 1.0000000e+07  1.0000000e+07  0.0000000e+00  1.0000000e+07 -1.6573840e+01  1.0000000e+07 -1.3285340e+02 
 1.2589254e+07  1.2589254e+07  0.0000000e+00  1.2589254e+07 -1.7622778e+01  1.2589254e+07 -1.4244653e+02 
 1.5848932e+07  1.5848932e+07  0.0000000e+00  1.5848932e+07 -1.8472612e+01  1.5848932e+07 -1.5213923e+02 
 1.9952623e+07  1.9952623e+07  0.0000000e+00  1.9952623e+07 -1.9152751e+01  1.9952623e+07 -1.6176724e+02 
 2.5118864e+07  2.5118864e+07  0.0000000e+00  2.5118864e+07 -1.9714052e+01  2.5118864e+07 -1.7125738e+02 
 3.1622777e+07  3.1622777e+07  0.0000000e+00  3.1622777e+07 -2.0219914e+01  3.1622777e+07  1.7936659e+02 
 3.9810717e+07  3.9810717e+07  0.0000000e+00  3.9810717e+07 -2.0738695e+01  3.9810717e+07  1.7002749e+02 
 5.0118723e+07  5.0118723e+07  0.0000000e+00  5.0118723e+07 -2.1338091e+01  5.0118723e+07  1.6066283e+02 
 6.3095734e+07  6.3095734e+07  0.0000000e+00  6.3095734e+07 -2.2079087e+01  6.3095734e+07  1.5128795e+02 
 7.9432823e+07  7.9432823e+07  0.0000000e+00  7.9432823e+07 -2.3007822e+01  7.9432823e+07  1.4202508e+02 
 1.0000000e+08  1.0000000e+08  0.0000000e+00  1.0000000e+08 -2.4147465e+01  1.0000000e+08  1.3307829e+02 
 1.2589254e+08  1.2589254e+08  0.0000000e+00  1.2589254e+08 -2.5495206e+01  1.2589254e+08  1.2466238e+02 
 1.5848932e+08  1.5848932e+08  0.0000000e+00  1.5848932e+08 -2.7027348e+01  1.5848932e+08  1.1692562e+02 
 1.9952623e+08  1.9952623e+08  0.0000000e+00  1.9952623e+08 -2.8709886e+01  1.9952623e+08  1.0990744e+02 
 2.5118864e+08  2.5118864e+08  0.0000000e+00  2.5118864e+08 -3.0508956e+01  2.5118864e+08  1.0354090e+02 
 3.1622777e+08  3.1622777e+08  0.0000000e+00  3.1622777e+08 -3.2397605e+01  3.1622777e+08  9.7681369e+01 
 3.9810717e+08  3.9810717e+08  0.0000000e+00  3.9810717e+08 -3.4358760e+01  3.9810717e+08  9.2139956e+01 
 5.0118723e+08  5.0118723e+08  0.0000000e+00  5.0118723e+08 -3.6385938e+01  5.0118723e+08  8.6711078e+01 
 6.3095734e+08  6.3095734e+08  0.0000000e+00  6.3095734e+08 -3.8483166e+01  6.3095734e+08  8.1194563e+01 
 7.9432823e+08  7.9432823e+08  0.0000000e+00  7.9432823e+08 -4.0664556e+01  7.9432823e+08  7.5417882e+01 
 1.0000000e+09  1.0000000e+09  0.0000000e+00  1.0000000e+09 -4.2952944e+01  1.0000000e+09  6.9263966e+01 
 1.2589254e+09  1.2589254e+09  0.0000000e+00  1.2589254e+09 -4.5375929e+01  1.2589254e+09  6.2704390e+01 
 1.5848932e+09  1.5848932e+09  0.0000000e+00  1.5848932e+09 -4.7957421e+01  1.5848932e+09  5.5825105e+01 
 1.9952623e+09  1.9952623e+09  0.0000000e+00  1.9952623e+09 -5.0704642e+01  1.9952623e+09  4.8815895e+01 
 2.5118864e+09  2.5118864e+09  0.0000000e+00  2.5118864e+09 -5.3595313e+01  2.5118864e+09  4.1891961e+01 
 3.1622777e+09  3.1622777e+09  0.0000000e+00  3.1622777e+09 -5.6575227e+01  3.1622777e+09  3.5149804e+01 
 3.9810717e+09  3.9810717e+09  0.0000000e+00  3.9810717e+09 -5.9575919e+01  3.9810717e+09  2.8436161e+01 
 5.0118723e+09  5.0118723e+09  0.0000000e+00  5.0118723e+09 -6.2547179e+01  5.0118723e+09  2.1373117e+01 
 6.3095734e+09  6.3095734e+09  0.0000000e+00  6.3095734e+09 -6.5476123e+01  6.3095734e+09  1.3596280e+01 
 7.9432823e+09  7.9432823e+09  0.0000000e+00  7.9432823e+09 -6.8370199e+01  7.9432823e+09  5.0233544e+00 
 1.0000000e+10  1.0000000e+10  0.0000000e+00  1.0000000e+10 -7.1224123e+01  1.0000000e+10 -4.0785534e+00 
 1.2589254e+10  1.2589254e+10  0.0000000e+00  1.2589254e+10 -7.4007065e+01  1.2589254e+10 -1.3213997e+01 
 1.5848932e+10  1.5848932e+10  0.0000000e+00  1.5848932e+10 -7.6676087e+01  1.5848932e+10 -2.1814327e+01 
 1.9952623e+10  1.9952623e+10  0.0000000e+00  1.9952623e+10 -7.9196382e+01  1.9952623e+10 -2.9351224e+01 
 2.5118864e+10  2.5118864e+10  0.0000000e+00  2.5118864e+10 -8.1551068e+01  2.5118864e+10 -3.5409470e+01 
 3.1622777e+10  3.1622777e+10  0.0000000e+00  3.1622777e+10 -8.3737363e+01  3.1622777e+10 -3.9722650e+01 
 3.9810717e+10  3.9810717e+10  0.0000000e+00  3.9810717e+10 -8.5755851e+01  3.9810717e+10 -4.2173817e+01 
 5.0118723e+10  5.0118723e+10  0.0000000e+00  5.0118723e+10 -8.7600863e+01  5.0118723e+10 -4.2778460e+01 
 6.3095734e+10  6.3095734e+10  0.0000000e+00  6.3095734e+10 -8.9256504e+01  6.3095734e+10 -4.1672108e+01 
 7.9432823e+10  7.9432823e+10  0.0000000e+00  7.9432823e+10 -9.0699655e+01  7.9432823e+10 -3.9109026e+01 
 1.0000000e+11  1.0000000e+11  0.0000000e+00  1.0000000e+11 -9.1908941e+01  1.0000000e+11 -3.5455636e+01 
 1.2589254e+11  1.2589254e+11  0.0000000e+00  1.2589254e+11 -9.2875807e+01  1.2589254e+11 -3.1153439e+01 
 1.5848932e+11  1.5848932e+11  0.0000000e+00  1.5848932e+11 -9.3611536e+01  1.5848932e+11 -2.6645944e+01 
 1.9952623e+11  1.9952623e+11  0.0000000e+00  1.9952623e+11 -9.4145870e+01  1.9952623e+11 -2.2298650e+01 
 2.5118864e+11  2.5118864e+11  0.0000000e+00  2.5118864e+11 -9.4518797e+01  2.5118864e+11 -1.8351973e+01 
 3.1622777e+11  3.1622777e+11  0.0000000e+00  3.1622777e+11 -9.4771065e+01  3.1622777e+11 -1.4921269e+01 
 3.9810717e+11  3.9810717e+11  0.0000000e+00  3.9810717e+11 -9.4937831e+01  3.9810717e+11 -1.2027716e+01 
 5.0118723e+11  5.0118723e+11  0.0000000e+00  5.0118723e+11 -9.5046296e+01  5.0118723e+11 -9.6360453e+00 
 6.3095734e+11  6.3095734e+11  0.0000000e+00  6.3095734e+11 -9.5116042e+01  6.3095734e+11 -7.6847049e+00 
 7.9432823e+11  7.9432823e+11  0.0000000e+00  7.9432823e+11 -9.5160506e+01  7.9432823e+11 -6.1049853e+00 
 1.0000000e+12  1.0000000e+12  0.0000000e+00  1.0000000e+12 -9.5188616e+01  1.0000000e+12 -4.8311691e+00 
